t,x,x_dot,theta,theta_dot,u
0.0,0.0008319954996237143,0.1664267896201751,0.5220137717179715,-0.317228687533066,10.0
0.01,0.003329644901909144,0.33318653596478714,0.5172450708945011,-0.637198038110899,10.0
0.02,0.007497957620734699,0.5006161917659466,0.5092514590246102,-0.9626764077048604,10.0
0.03,0.013341476040618621,0.6682848449903303,0.4979750855910218,-1.294220240991401,9.957702821919053
0.04,0.020741695217485277,0.8119727151719995,0.48370133721101294,-1.5623816094223753,8.581518205662697
0.05,0.0294732062672286,0.9345430056748182,0.46701968212211536,-1.775911133188738,7.364371936236246
0.06,0.03933713238224118,1.0384455689781453,0.44843991669958144,-1.9420329954476774,6.287513576897658
0.07,0.0501575712709438,1.1258301786002332,0.4284050597853516,-2.0669078478147536,5.3362829618329535
0.08,0.06177896548719759,1.1986193288804485,0.40730042063423866,-2.1559380632116922,4.498551721855392
0.09,0.07406406056751824,1.258553329755061,0.38546017919543013,-2.213961954302051,3.7637089409083764
0.1,0.08689221927231076,1.307216677520074,0.3631724216605193,-2.245369910609003,3.122028139865919
0.11,0.10015793857406727,1.3460524309944608,0.3406832851022396,-2.2541675591433217,2.5643136210615154
0.12,0.11376947559136827,1.3763697945081257,0.3182006401677587,-2.2440059343222716,2.0817527590752327
0.13,0.12764753097633028,1.3993481730890929,0.29589757273306216,-2.218192320566623,1.665877413640513
0.14,0.14172396829992392,1.416040442676197,0.2739157989816523,-2.179693406170517,1.3086134025950136
0.15,0.15594056946012186,1.4273769860237782,0.252369053020222,-2.1311381723366676,1.002363875533013
0.16,0.1702478369285635,1.4341711004383957,0.23134642974403502,-2.0748243698303863,0.7400878122121135
0.17,0.1846038580820283,1.4371260588309376,0.21091563528684026,-2.0127308158810253,0.5153675878777131
0.18,0.19897324778461045,1.4368437295688832,0.19112608374639303,-1.9465360238031897,0.32245602616861824
0.19,0.21332618204766932,1.4338341859506116,0.17201178368736905,-1.877641711421734,0.15628697736372477
0.2,0.2276375307672359,1.4285259141081985,0.15359397130608507,-1.8071999916420307,0.012464782152616927
0.21,0.24188609276093603,1.4212760592057985,0.13588346298888732,-1.7361422934659736,-0.11277186195647726
0.22,0.25605393187017,1.4123803825509156,0.11888271636784967,-1.665208709790345,-0.22259749774146353
0.23,0.2701258094071858,1.4020825622847861,0.1025876029476143,-1.5949762942681303,-0.3196600649320014
0.24,0.2840887055415074,1.3905826697385308,0.08698890690908546,-1.52588548770421,-0.40614354933280916
0.25,0.2979314205211244,1.378044650459919,0.072073572822644,-1.458263872766604,-0.48383384939629215
0.26,0.3116442459543954,1.36460284748846,0.05782572937286701,-1.3923471869417816,-0.5541782195018237
0.27,0.32521869667081754,1.3503675877448973,0.044227516954817234,-1.3282975124120302,-0.6183400546733187
0.28,0.33864729389990345,1.3354298547289232,0.0312597475804128,-1.2662186078373079,-0.6772497423429442
0.29,0.35192339112126464,1.3198651468706415,0.018902424449009463,-1.2061686329275625,-0.7316484993293582
0.3,0.36504103520490583,1.3037366750977328,0.007135144985955841,-1.1481707238384682,-0.7821230869176143
0.31,0.37799485644982367,1.2870979436023293,-0.004062591707729249,-1.0922215322647792,-0.8291373508601614
0.32,0.39077998168951283,1.2699947817144228,-0.014711153651694557,-1.0382979344414296,-0.8730597312641134
0.33,0.4033919659052738,1.2524670132589117,-0.02483060577358516,-0.9863625207178139,-0.914181069211203
0.34,0.41582673866430286,1.2345497520971656,-0.03444058827991873,-0.9363678239731101,-0.9527327678934155
0.35000000000000003,0.4280805620774671,1.2162744106356906,-0.04356023244115298,-0.8882595757650458,-0.9889005191214728
0.36,0.4401499977334085,1.1976694867953086,-0.05220810516719122,-0.8419792101795925,-1.02283473348351
0.37,0.4520318807346238,1.1787611976992076,-0.06040217600066023,-0.7974658454760452,-1.0546575788484613
0.38,0.46372329908381016,1.1595739163239054,-0.06815980059410477,-0.7546576010785486,-1.084472258987371
0.39,0.4752215771196773,1.1401305450120294,-0.07549771626907822,-0.7134926985869007,-1.1123656513900406
0.4,0.4865242622391331,1.120452799498865,-0.082432047072138,-0.6739102616661118,-1.13841232593769
0.41000000000000003,0.4976291139170602,1.1005613846480373,-0.0889783150175897,-0.6358507548124768,-1.1626795714373581
0.42,0.5085340944887254,1.080476171449473,-0.09515145573628254,-0.5992564268618058,-1.1852269897958463
0.43,0.5192373612218081,1.0602162781423632,-0.10096583697200402,-0.5640714379767312,-1.2061110123965895
0.44,0.5297372594391202,1.0398001993859272,-0.10643527915547152,-0.530242148923505,-1.2253822431144414
0.45,0.5400323162970855,1.019245808397926,-0.11157307677865896,-0.4977169925898182,-1.2430916282697968
0.46,0.5501212350523054,0.9985704525393901,-0.11639202005134562,-0.4664466593585898,-1.259285592911536
0.47000000000000003,0.560002889741141,0.9777909404533162,-0.12090441663327958,-0.4363839273935135,-1.2740113443921368
0.48,0.5696763200299693,0.9569235891381491,-0.12512211268258297,-0.40748369588998123,-1.2873137429346642
0.49,0.5791407263325702,0.9359842303832733,-0.1290565135840405,-0.3797028881485126,-1.2992372456840635
0.5,0.5883954649816394,0.914988215220807,-0.1327186036962558,-0.35300035249584394,-1.309825927032748
0.51,0.5974400434658904,0.8939504226443821,-0.13611896519857708,-0.3273367815018649,-1.319123198207991
0.52,0.6062741157501832,0.8728852675418383,-0.1392677961363491,-0.30267463258983784,-1.3271717929808458
0.53,0.6148974776178188,0.85180669723483,-0.14217492750269245,-0.27897801485738605,-1.334014298393953
0.54,0.623310062026221,0.8307281976472134,-0.14484983936513293,-0.25621261131210255,-1.3396926352868124
0.55,0.6315119345009533,0.8096627948313724,-0.14730167615457387,-0.23434558918693013,-1.3442482647354155
0.56,0.6395032885451151,0.7886230565400743,-0.1495392610739896,-0.21334551362524753,-1.3477221646334392
0.5700000000000001,0.6472844410209553,0.7676210851163681,-0.1515711095157508,-0.19318223575649895,-1.3501552516013076
0.58,0.6548558276277539,0.7466685438713392,-0.153405441925359,-0.1738268939372973,-1.3515866795206577
0.59,0.6622179983879188,0.7257766323660503,-0.15505019584895097,-0.1552517493038783,-1.3520564093061753
0.6,0.6693716131078422,0.7049561060868387,-0.15651303708012515,-0.13743017006375716,-1.3516029637956049
0.61,0.6763174370326401,0.6842172955594259,-0.15780137065172825,-0.12033661624689472,-1.3502634526204977
0.62,0.6830563364049379,0.6635700680505858,-0.1589223507416126,-0.1039464377327763,-1.348076470984863
0.63,0.6895892740970878,0.643023880554045,-0.15988289007143502,-0.08823597480928326,-1.34507749155392
0.64,0.6959173053565866,0.6225877494543215,-0.16068966894966336,-0.07318238648939265,-1.3413030746676495
0.65,0.7020415735407395,0.6022702787112864,-0.16134914357027522,-0.05876367329310376,-1.336787917001525
0.66,0.7079633060118293,0.5820796637822944,-0.16186755414898513,-0.04495862199331092,-1.3315660819180162
0.67,0.7136838100638019,0.5620236940042491,-0.16225093249054187,-0.03174674706367641,-1.3256710835810375
0.68,0.7192044689538769,0.5421097711982029,-0.16250510924571454,-0.019108287163488325,-1.3191350741852914
0.6900000000000001,0.7245267380293328,0.522344910100995,-0.1626357208425284,-0.0070241434973766885,-1.3119897697358727
0.7000000000000001,0.7296521408414384,0.5027357353611339,-0.1626482157525433,0.004524191573373812,-1.3042666315560008
0.71,0.734582265386437,0.4832885099541403,-0.1625478605671716,0.015554601136868601,-1.2959952866466489
0.72,0.7393187605266209,0.4640091427873374,-0.16233974607315108,0.026084377281162675,-1.287204587975655
0.73,0.7438633324587589,0.444903190564243,-0.16202879290564204,0.0361302720430434,-1.2779229137099968
0.74,0.7482177412688796,0.4259758731905824,-0.1616197569216332,0.04570850241111671,-1.268177492127755
0.75,0.7523837975708475,0.4072320751256501,-0.16111723429914707,0.054834800178598424,-1.257995120961451
0.76,0.7563633592136955,0.3886763577809862,-0.16052566632625948,0.06352442414578773,-1.2474016183329188
0.77,0.7601583282061256,0.37031299055756167,-0.15984934438130485,0.07179210965833957,-1.2364208908134524
0.78,0.7637706476708355,0.35214592576979903,-0.15909241450173295,0.07965220137468397,-1.2250777778192923
0.79,0.7672022988588367,0.33417883571987744,-0.15825888165391586,0.08711858032050476,-1.2133949212384896
0.8,0.7704552982893874,0.31641510074410034,-0.15735261393221123,0.09420475099404599,-1.201395251207074
0.81,0.7735316950056963,0.2988578443219825,-0.15637734666749073,0.10092377236484175,-1.1890996184714615
0.8200000000000001,0.7764335679265177,0.2815099171422641,-0.15533668639212259,0.10728835560412973,-1.1765293814272118
0.8300000000000001,0.7791630232577285,0.26437392503309404,-0.15423411455550365,0.11331081625432099,-1.1637042000459488
0.84,0.7817221920960807,0.24745223946753478,-0.15307299143726125,0.11900308251342394,-1.1506429251290493
0.85,0.7841132280078472,0.23074698203149457,-0.15185655955499638,0.12437678808814966,-1.1373649212181283
0.86,0.7863383047661476,0.21426007169554506,-0.1505879471832021,0.12944315708177112,-1.123886905270385
0.87,0.7883996141764434,0.19799319517184302,-0.1492701717626564,0.13421314104000764,-1.1102268371823782
0.88,0.790299363910042,0.18194783815945229,-0.14790614294762355,0.13869735435625322,-1.0964008549948523
0.89,0.7920397755762507,0.166125301830587,-0.14649866606155965,0.14290605713837615,-1.08242402850055
0.9,0.7936230827666978,0.15052668077220963,-0.1450504450947043,0.14684926401214443,-1.0683123113795032
0.91,0.7950515291723835,0.13515289959262855,-0.14356408558556222,0.15053665853289658,-1.0540795896905195
0.92,0.7963273668755911,0.12000471128581915,-0.14204209773333543,0.15397763257811883,-1.039739618623973
0.93,0.7974528546584907,0.10508270220389726,-0.14048689923067106,0.15718130291260796,-1.025305696573731
0.9400000000000001,0.7984302563978131,0.09038730429841306,-0.1389008180557098,0.16015650276524934,-1.0107903059490078
0.9500000000000001,0.7992618394904092,0.07591878905340341,-0.13728609505129,0.16291183284434757,-0.9962060427107058
0.96,0.7999498733757977,0.06167729295155905,-0.13564488651894582,0.1654556073536647,-0.9815640339707692
0.97,0.8004966281984689,0.047662819958748645,-0.13397926697849893,0.16779587485341063,-0.9668751031542889
0.98,0.8009043734701294,0.03387523902520181,-0.1322912316415733,0.1699404546393297,-0.9521500272938341
0.99,0.8011753767695893,0.020314294112274756,-0.13058269873252354,0.17189693088980829,-0.9373989120449153
1.0,0.8013119025238368,0.0069796104026980475,-0.12885551180921614,0.1736726585505309,-0.9226313898628581
1.01,0.8013162109483831,-0.006129280053053056,-0.12711144235055277,0.17527470407593876,-0.9078556479158818
1.02,0.8011905569731272,-0.019012966884399803,-0.12535219204583373,0.17670996436082875,-0.8930811620283493
1.03,0.8009371891295233,-0.03167214059232926,-0.1235793947141756,0.17798512181156545,-0.8783162170485342
1.04,0.8005583485844453,-0.044107584017492214,-0.12179461847423093,0.17910663920018338,-0.8635685302250256
1.05,0.8000562682775549,-0.05632016017072391,-0.1199993680296535,0.18008074165218055,-0.848845073781671
1.06,0.7994331720471433,-0.06831082671117521,-0.11819508669807177,0.18091348598584742,-0.8341534203564847
1.07,0.7986912737843431,-0.0800806157928473,-0.11638315832303989,0.18161071477646415,-0.8195000056178849
1.08,0.79783277665816,-0.09163064005595097,-0.11456490921649472,0.18217809619739075,-0.8048914478342968
1.09,0.7968598723639488,-0.10296208194620804,-0.112741609982118,0.18262110800271117,-0.7903337138572428
1.1,0.7957747404442356,-0.1140761899268506,-0.11091447738825262,0.18294504363279915,-0.7758324700975775
1.11,0.7945795476676218,-0.12497427064978489,-0.10908467625010752,0.18315500424979536,-0.76139288378632
1.12,0.7932764474011873,-0.1356576980871945,-0.10725332111409261,0.18325594629675007,-0.7470204792210399
1.1300000000000001,0.7918675789960002,-0.14612790177810786,-0.10542147781537063,0.18325265929921383,-0.7327200918648091
1.1400000000000001,0.790355067289096,-0.15638635528690997,-0.103590165256975,0.1831497437343417,-0.7184958831205293
1.1500000000000001,0.7887410220936582,-0.1664345901069038,-0.10176035699178422,0.1829516726129837,-0.7043526220590648
1.16,0.7870275377147865,-0.17627417663824518,-0.09993298273701824,0.18266274338975672,-0.6902940350561131
1.17,0.7852166925267,-0.18590673092400906,-0.09810892994559707,0.18228711468361164,-0.6763241028583346
1.18,0.78331054853883,-0.19533391013664098,-0.09628904519942448,0.18182880518313185,-0.6624464987559903
1.19,0.7813111510264704,-0.20455740417953025,-0.09447413568061805,0.18129167914544098,-0.6486643967886819
1.2,0.7792205281746154,-0.2135789414491945,-0.09266497055551844,0.18067947835199333,-0.6349811855564133
1.21,0.7770406907262469,-0.22240028218319863,-0.09086228224739709,0.17999581241871973,-0.6213998478779668
1.22,0.7747736316891262,-0.23102321341127263,-0.08906676778181741,0.17924415395037271,-0.607923044141452
1.23,0.7724213260590189,-0.23944955071793655,-0.08727909006978726,0.17842785583449805,-0.5945534567958055
1.24,0.769985730527096,-0.24768113964599123,-0.08549987902606293,0.17755016692979372,-0.5812937746837249
1.25,0.7674687832438513,-0.25571984298845446,-0.0837297327668053,0.17661420049828025,-0.5681459876819973
1.26,0.7648724036573841,-0.2635675386233022,-0.08196921895015323,0.17562293718146882,-0.5551119182860434
1.27,0.762198492279863,-0.271226136045194,-0.08021887577871246,0.17457928967081848,-0.5421941613373521
1.28,0.7594489304648148,-0.2786975576679918,-0.07847921294195416,0.17348605005260462,-0.5293943193963105
1.29,0.7566255802683757,-0.2859837407290472,-0.0767507127448743,0.1723459052011886,-0.5167140380203757
1.3,0.7537302843253166,-0.2930866324304855,-0.07503383119695278,0.1711614293275973,-0.5041546689088973
1.31,0.7507648657120639,-0.30000819739978896,-0.07332899897277831,0.16993511710995557,-0.49171788939092265
1.32,0.7477311277821197,-0.30675041575022394,-0.07163662219904714,0.1686693852997033,-0.47940523286054637
1.33,0.7446308541099748,-0.3133152633194315,-0.06995708352317344,0.16736651476863265,-0.46721719769761005
1.34,0.7414658084186572,-0.31970473470592636,-0.068290743051997,0.16602873445986582,-0.45515539386287085
1.35,0.7382377344692166,-0.3259208278455887,-0.06663793909157495,0.16465817722852152,-0.4432206172333262
1.36,0.7349483559914043,-0.33196555119609195,-0.06499898895412437,0.16325691056961766,-0.4314139839173734
1.37,0.7315993766278265,-0.33784091385768794,-0.0633741897426746,0.16182691034722066,-0.4197360769310101
1.3800000000000001,0.7281924799365186,-0.34354892376739554,-0.061763819265627656,0.16037006107514978,-0.4081873523846181
1.3900000000000001,0.724729329356693,-0.3490915968717606,-0.0601681367673788,0.15888819243983895,-0.39676869085248523
1.4000000000000001,0.7212115681521053,-0.3544709524307359,-0.0585873835254498,0.15738306948299977,-0.385480703927467
1.41,0.7176408193952493,-0.3596890095477319,-0.05702178352646007,0.15585638664562693,-0.37432379691429274
1.42,0.7140186859966596,-0.3647477816171253,-0.05547154423748141,0.1543097546397996,-0.3632980659937898
1.43,0.7103467507079886,-0.36964928712345374,-0.05393685723788149,0.1527447414918356,-0.35240411826723417
1.44,0.7066265761285356,-0.37439553815122734,-0.05241789881252412,0.15116283922787285,-0.34164195685843113
1.45,0.7028597047409831,-0.3789885460339435,-0.0509148305939977,0.14956548738104913,-0.3310118402257137
1.46,0.699047658949973,-0.3834303151369793,-0.04942780016822146,0.14795405681012724,-0.3205136892600712
1.47,0.6951919411257488,-0.3877228480618622,-0.04795694165280269,0.14632987133403064,-0.31014766014635275
1.48,0.6912940335976145,-0.3918681504800866,-0.04650237606602588,0.14469422798671278,-0.2999141265941554
1.49,0.687355398740201,-0.3958682077354699,-0.04506421196386515,0.143048323134394,-0.2898122678147824
1.5,0.683377479070874,-0.39972500601427696,-0.04364254607514049,0.14139332673417201,-0.279842300398376
1.51,0.6793616972729487,-0.40344052601509844,-0.04223746365264808,0.13973036489942015,-0.270004102744307
1.52,0.6753094562542352,-0.40701674221252704,-0.0408490389061434,0.13806052095814542,-0.2602974957735329
1.53,0.671222139245627,-0.41045561558385385,-0.03947733553430832,0.13638481458975998,-0.25072191673660693
1.54,0.6671011098693995,-0.4137591069417062,-0.038122407123104815,0.1347042494228111,-0.2412774511666107
1.55,0.6629477122075471,-0.41692916359350557,-0.03678429751281989,0.13301977169922555,-0.23196349887635115
1.56,0.6587632709344056,-0.41996771982386316,-0.03546304134902294,0.13133227481469925,-0.2227794665348013
1.57,0.6545490913961707,-0.42287670703445657,-0.03415866442809259,0.12964263588065855,-0.21372525162958067
1.58,0.6503064596658248,-0.42565804852304473,-0.032871183933376534,0.12795170104289239,-0.20480047441397842
1.59,0.6460366426890046,-0.42831364651429715,-0.031600608947703626,0.12626024487102364,-0.19600409104181082
1.6,0.6417408883898847,-0.4308454031272639,-0.03034694080761727,0.12456904263886837,-0.18733609213000102
1.61,0.6374204257522561,-0.43325520436916315,-0.02911017335102285,0.12287881936713779,-0.17879565358828442
1.62,0.6330764649433419,-0.4355449275936432,-0.027890293284092173,0.1211902769216032,-0.17038231103589407
1.6300000000000001,0.6287101974242829,-0.43771643670882904,-0.02668728048174762,0.11950408020335414,-0.16209534759194244
1.6400000000000001,0.6243227960709583,-0.43977158490220175,-0.0255011083015306,0.11782086828103057,-0.15393417045104385
1.6500000000000001,0.6199154152807068,-0.44171221473616107,-0.02433174383039789,0.11614125667796037,-0.1458981798565161
1.6600000000000001,0.6154891911214512,-0.4435401495707517,-0.023179148253547,0.11446581066955032,-0.13798633587975973
1.67,0.6110452414446444,-0.4452572093778033,-0.02204327708450396,0.11279509974496697,-0.13019837896122077
1.68,0.6065846659955291,-0.4468651954640945,-0.02092408036881871,0.11112964842467489,-0.12253327520783008
1.69,0.6021085465636258,-0.44836589770164337,-0.019821503005046013,0.10946996197772871,-0.11499034261628616
1.7,0.5976179471071917,-0.44976109250419843,-0.01873548496315547,0.10781652122610563,-0.10756878871803999
1.71,0.5931139138774978,-0.4510525448869853,-0.017665961487207907,0.10616979088841376,-0.10026791517835232
1.72,0.5885974755573623,-0.4522420035554129,-0.016612863331051296,0.10453020462955155,-0.09308676955462081
1.73,0.5840696434095491,-0.45333120384350295,-0.015576117013126492,0.10289817618783596,-0.08602453833312307
1.74,0.5795314114115783,-0.4543218674932338,-0.014555645012999528,0.10127409990689759,-0.07908038934239792
1.75,0.5749837563848113,-0.4552157040204526,-0.013551365936431116,0.0996583564987676,-0.07225355142189127
1.76,0.5704276381306885,-0.45601440791848225,-0.01256319469241685,0.09805130488563386,-0.06554310657369766
1.77,0.565863999575805,-0.45671965968681966,-0.01159104268836326,0.0964532867296048,-0.0589481815949815
1.78,0.5612937669185558,-0.45733312448835567,-0.010634818019775394,0.0948646230010062,-0.05246782983366527
1.79,0.5567178497770449,-0.4578564532396438,-0.009694425654015494,0.09328561859634325,-0.046101153203105705
1.8,0.552137141335998,-0.45829128171985023,-0.00876976760117063,0.0917165602994928,-0.03984720342328907
1.81,0.5475525184738274,-0.45863923543202545,-0.007860743009697146,0.0901577338709388,-0.03370526991569078
1.82,0.5429648419253948,-0.45890191760120763,-0.00696724837232613,0.08860938489773204,-0.027674036802520896
1.83,0.5383749564360036,-0.45908092293113745,-0.0060891776945985595,0.08707176542070608,-0.021752871362092696
1.84,0.5337836908977164,-0.4591778273824425,-0.005226422596878595,0.08554510061646363,-0.015940625184067247
1.85,0.529191858504063,-0.45919419471629774,-0.004378872470383327,0.08402961130811516,-0.010236472788514805
1.86,0.5246002568960502,-0.4591315716906587,-0.003546414597398699,0.08252549861994933,-0.004639344435902748
1.87,0.520009668308719,-0.45899149275430046,-0.002728934266878952,0.08103296024645619,0.0008515987108904666
