t,x,x_dot,theta,theta_dot,u
0.0,0.0008319439903618037,0.16641648345552112,0.5220139205044643,-0.3171988993682354,9.999433635021063
0.01,0.003329402450450971,0.33315863526508993,0.517245772489852,-0.6371171364814519,9.999036553136799
0.02,0.00749727582111994,0.5005561739294766,0.5092534377528637,-0.9625015518875765,9.998250144449257
0.03,0.01334375149984656,0.6689372914472281,0.4979684417264622,-1.2961254243338598,9.996586249404434
0.04,0.020880232101712345,0.8386171222165072,0.48329456296882595,-1.6407677474816915,9.99279934310318
0.05,0.030121006707850864,1.009857654635558,0.46510831548910986,-1.9991031657385698,9.98346217803219
0.06,0.04108207085039848,1.1827370865341844,0.44326193416162096,-2.3733088146422263,9.95834943268181
0.07,0.053777081579281974,1.3567061704506242,0.4175951645190135,-2.7636891193524655,9.884333278430894
0.08,0.06820316450601292,1.528997999073248,0.38797880630045706,-3.1636753396445454,9.6463866219278
0.09,0.08429103061121372,1.6890664507534332,0.354471450051594,-3.542105854916991,8.844654624236881
0.1,0.10176248569601229,1.8056052249097532,0.31777590013906354,-3.8008745918221365,6.42562497235745
0.11,0.1199807568419135,1.838194246873763,0.2797425355340249,-3.808445276579245,1.9822944026381906
0.12,0.1381853734378877,1.8027209548762664,0.24265987224395744,-3.609825407216594,-1.5451379791970283
0.13,0.15587975670604073,1.736122463656498,0.2080156855429692,-3.3204583120203113,-3.130768373075599
0.14,0.1728501315682219,1.6579434498865444,0.17640899683301414,-3.0022787514328817,-3.713368327177722
0.15,0.18902846907049858,1.5777479271054562,0.14797587763840042,-2.685748685276355,-3.817967902898676
0.16,0.20441975737076762,1.500560937525313,0.12262018008363987,-2.386782891413486,-3.6778756114037088
0.17,0.21906691756944485,1.4289404436963675,0.10012672359579526,-2.113257283274085,-3.4163019801271783
0.18,0.23303084815342956,1.3639246506313727,0.08022663888947076,-1.8680376030591153,-3.10724265668874
0.19,0.24637814783736203,1.3056174572478083,0.06263791108521125,-1.650896965392337,-2.7952848340865346
0.2,0.2591738681330437,1.2536076481309264,0.04708931944369403,-1.459912904592567,-2.504498131334393
0.21,0.2714778014953719,1.207256333814201,0.033332547601254654,-1.2924341361394722,-2.245121834515787
0.22,0.28334307717274915,1.165870972239881,0.021146520087335863,-1.145668368913164,-2.01915139963642
0.23,0.29481607198926957,1.1287944140845478,0.010337297576885496,-1.0169832791505784,-1.824459443840303
0.24,0.3059369457511562,1.0954408969220697,0.000735866403657361,-0.904027315413017,-1.65733500197781
0.25,0.316740393268624,1.0653034732571771,-0.007804790036129381,-0.8047530233953231,-1.5138283305772935
0.26,0.32725640701500747,1.0379487822903242,-0.015412634128047272,-0.7173969216364006,-1.3903275930433145
0.27,0.3375109644786197,1.0130072654625857,-0.022199235759554358,-0.6404436252061925,-1.2837508453283037
0.28,0.3475266165527198,0.9901631901427033,-0.028262070674762295,-0.5725891862259134,-1.1915334830474527
0.29,0.35732298080812597,0.9691456225937116,-0.03368646808949813,-0.512707687330608,-1.1115674421034614
0.3,0.36691715235021266,0.9497209845635187,-0.03854725141896401,-0.45982331836462725,-1.0421142267454997
0.31,0.3763240472221984,0.931687013908315,-0.04291012431122368,-0.4130873878546886,-0.9817303751785988
0.32,0.38555669095473444,0.9148678381710565,-0.04683284661737391,-0.37175931324831146,-0.9292096227465898
0.33,0.3946264630392618,0.8991100887781872,-0.05036623888911286,-0.33519134295445446,-0.8835299870113199
0.34,0.40354330582160347,0.8842796727007058,-0.053555046287594006,-0.30281571890104836,-0.8438208066670809
0.35000000000000003,0.41231590383023725,0.8702590887483168,-0.056438684345743,-0.27413388419865736,-0.809335881005555
0.36,0.4209518388992542,0.8569452707393818,-0.05905188663924528,-0.2487076552730853,-0.7794277402375892
0.37,0.42945772511090263,0.8442477084739002,-0.06142526976503507,-0.22615150854757737,-0.7535344991702854
0.38,0.4378393263321378,0.8320868455858077,-0.06358582665975279,-0.2061259585995957,-0.7311667931295067
0.39,0.4461016590743305,0.8203927462368137,-0.06555735894536907,-0.18833198224073977,-0.7118951014647551
0.4,0.45424908263608416,0.8091038848971529,-0.06736085625145745,-0.1725059866420746,-0.695344329561056
0.41000000000000003,0.46228537834583744,0.7981661763414462,-0.06901482982427022,-0.15841569561409202,-0.6811824691164976
0.42,0.47021381917550975,0.7875320196727971,-0.07053560577309037,-0.14585618803926145,-0.6691205270384769
0.43,0.4780372310852152,0.7771596003203716,-0.07193758346786266,-0.13464688718214443,-0.6589001714977111
0.44,0.4857580470548283,0.7670121252359576,-0.0732334631419221,-0.12462841015394574,-0.6502975888625326
0.45,0.4933783545886425,0.7570572821410783,-0.0744344460859957,-0.11566023461404802,-0.643112711673872
0.46,0.5008999377996505,0.7472666960568635,-0.07555041179210605,-0.10761842029475108,-0.6371697567276824
0.47000000000000003,0.5083243143186348,0.7376154375921143,-0.07659007346277887,-0.10039355886321942,-0.6323149874673115
0.48,0.5156527680978096,0.7280816934436147,-0.07756111596892948,-0.09388931241249665,-0.6284088978249247
0.49,0.5228863782418066,0.7186463012542652,-0.07847031716433055,-0.08802054500434939,-0.6253332875596167
0.5,0.5300260442849927,0.7092925039147749,-0.0793236543591972,-0.08271222176442287,-0.6229805061305248
0.51,0.537072508735992,0.7000056486228083,-0.08012639904075515,-0.07789815826753237,-0.6212564348849324
0.52,0.5440263769433531,0.6907729519736394,-0.08088320033867208,-0.07352001923585089,-0.6200773655137479
0.53,0.5508881345734308,0.6815832572435011,-0.08159815848338439,-0.06952631763614772,-0.6193705568420423
0.54,0.557658162935869,0.672426846563591,-0.0822748892861979,-0.0658716192293471,-0.6190716278673801
0.55,0.5643367525188419,0.6632952706451686,-0.08291658106087917,-0.06251582572593886,-0.6191238046951433
0.56,0.5709241153048715,0.654181275130606,-0.0835260460739727,-0.059423796938688545,-0.6194731881744067
0.5700000000000001,0.5774203952721464,0.6450785112957359,-0.08410576471834491,-0.05656427272560461,-0.6200796663130743
0.58,0.5838256775582699,0.635981557791519,-0.08465792414226439,-0.05390984169889364,-0.6209014037084594
0.59,0.5901399969054018,0.6268857551602409,-0.08518445351948668,-0.05143630046788429,-0.6219043055809077
0.6,0.5963633449132784,0.6177871328613325,-0.08568705450438109,-0.049122331024384375,-0.6230574464898138
0.61,0.6024956765092335,0.6086823256229748,-0.08616722833279598,-0.046949152245170676,-0.6243336645017175
0.62,0.6085369155337299,0.5995684801684452,-0.08662629932161055,-0.044900147848478865,-0.6257100957315321
0.63,0.6144869597943381,0.5904432421625797,-0.08706543601752283,-0.04296076809753769,-0.6271641965241519
0.64,0.6203456854997946,0.581304645264706,-0.0874856697717271,-0.04111811308158996,-0.6286786935800706
0.65,0.6261129511445659,0.5721511121606101,-0.08788791103603406,-0.03936089354104256,-0.6302360030521242
0.66,0.6317886008742337,0.5629813496816314,-0.08827296353524124,-0.0376790451342699,-0.6318235736994814
0.67,0.6373724675594049,0.553794395380135,-0.08864153711899408,-0.036063849958952246,-0.6334263173596637
0.68,0.6428643755766881,0.5445895123602353,-0.08899425933087515,-0.034507558385068964,-0.6350342449827708
0.6900000000000001,0.6482641430313665,0.5353661827713874,-0.08933168485164537,-0.03300334188400498,-0.6366375389996214
0.7000000000000001,0.6535715838761723,0.5261240935311422,-0.08965430435711795,-0.03154522308110132,-0.6382269614225343
0.71,0.6587865097780609,0.5168631001956542,-0.08996255232807097,-0.030127936031196068,-0.6397949667926007
0.72,0.6639087316902818,0.5075832041407112,-0.09025681369622782,-0.028746833066608364,-0.6413350490406917
0.73,0.6689380612086383,0.4982845322125011,-0.09053742961030249,-0.027397801894393288,-0.6428416300688293
0.74,0.6738743118692218,0.4889673453693732,-0.09080470286347186,-0.02607728075724567,-0.6443086165167676
0.75,0.6787173003942273,0.47963201965464497,-0.09105890302211427,-0.024782183503930896,-0.6457307983637217
0.76,0.683466847601683,0.4702789979983949,-0.09130027032915547,-0.023509729347349625,-0.6471053215652769
0.77,0.6881227791219564,0.4609087997661299,-0.09152901886936027,-0.02225746543694335,-0.6484287980206783
0.78,0.6926849261989193,0.4515220281428789,-0.09174533992970667,-0.021023283317807007,-0.6496974205954582
0.79,0.6971531265035062,0.4421193652277654,-0.0919494053259438,-0.019805395706095793,-0.6509075863285702
0.8,0.7015272246064072,0.4327015087587595,-0.0921413695334061,-0.018602120474917393,-0.6520588305647514
0.81,0.7058070723585087,0.4232692169345727,-0.0923213714546132,-0.0174120239946274,-0.6531484072715349
0.8200000000000001,0.7099925294227126,0.41382329387152256,-0.09248953663837867,-0.0162338681305312,-0.6541742715043842
0.8300000000000001,0.714083463788657,0.4043646007264901,-0.09264597939834561,-0.015066643122170605,-0.6551337959208716
0.84,0.7180797520129526,0.3948939896710107,-0.09279080398342199,-0.013909345013135137,-0.6560276451163409
0.85,0.721981279442549,0.38541236654195193,-0.09292410565927627,-0.012761180423604098,-0.6568533213826938
0.86,0.7257879406453276,0.3759206696411482,-0.09304597244845,-0.011621493553444351,-0.6576093747908202
0.87,0.7294996395038664,0.36641982356235453,-0.09315648572858844,-0.010489610715648967,-0.6582966586656422
0.88,0.7331162893755868,0.3569107986418667,-0.09325572102939961,-0.009365035561941215,-0.6589130310051573
0.89,0.736637813372646,0.3473945754597729,-0.09334374920811422,-0.00824732958790973,-0.6594581207756635
0.9,0.7400641445108411,0.3378721541378702,-0.09342063717491786,-0.007136141587147678,-0.6599310819955823
0.91,0.7433952257062921,0.32834451459429875,-0.09348644810028298,-0.006031074538043333,-0.6603330556234179
0.92,0.7466310099011155,0.3188126820896229,-0.0935412420384306,-0.004931901973538829,-0.6606618869190652
0.93,0.7497714603140816,0.30927768668016964,-0.09358507695565942,-0.003838432617014144,-0.6609174507324673
0.9400000000000001,0.7528165503932651,0.29974054415691526,-0.0936180087627337,-0.0027504464816371574,-0.6611005744542051
0.9500000000000001,0.7557662637726253,0.2902022758924523,-0.09364009135377739,-0.00166776007242335,-0.6612110856802682
0.96,0.7586205943769705,0.28066391867402085,-0.09365137713133719,-0.0005902584553295355,-0.661248315255569
0.97,0.7613795465077937,0.27112651104446966,-0.09365191746325621,0.00048215045485155983,-0.6612122770816709
0.98,0.764043134814464,0.26159108402967135,-0.09364176275577754,0.001549566965849099,-0.6611034485302736
0.99,0.7666113844311441,0.2520587035601919,-0.0936209630738546,0.0026119590533159685,-0.6609201770923057
1.0,0.7690843309904479,0.24253040339466028,-0.09358956835136842,0.003669384965478562,-0.6606641758543979
1.01,0.7714620204619931,0.23300721717177117,-0.09354762801984025,0.004721886963852029,-0.6603355490299213
1.02,0.7737445091714724,0.2234901824659725,-0.09349519123495605,0.005769477974425794,-0.6599341966839624
1.03,0.7759318638605965,0.21398034490684179,-0.09343230723806742,0.006812127930821227,-0.6594598121204881
1.04,0.7780241616151001,0.20447872766949,-0.09335902528018897,0.007849864965586668,-0.6589136198273742
1.05,0.780021489921138,0.19498638766514,-0.09327539497244493,0.008882588895755042,-0.6582940251715206
1.06,0.7819239466382502,0.18550434266233334,-0.09318146636092642,0.009910312877366937,-0.6576030914391697
1.07,0.7837316399179456,0.1760336332883682,-0.09307728982263888,0.010932957545309048,-0.6568397716106884
1.08,0.7854446882595328,0.16657528848024084,-0.09296291641835136,0.011950465459162363,-0.6560047534291038
1.09,0.7870632203447487,0.15713031578844458,-0.09283839751353007,0.012962833096275762,-0.6550992122419432
1.1,0.7885873749997344,0.1476997365455776,-0.09270378482321584,0.013969994036821923,-0.6541225594643547
1.11,0.7900173013015773,0.1382845796139958,-0.09255913093817028,0.014971839488730708,-0.6530745215895893
1.12,0.791353158432008,0.12888583706342852,-0.09240448901465062,0.015968365101736385,-0.65195705057812
1.1300000000000001,0.7925951155637179,0.11950451501866571,-0.09223991257450005,0.016959502080105722,-0.6507695480309177
1.1400000000000001,0.7937433520154804,0.11014163657831308,-0.09206545619902913,0.01794510724411185,-0.6495112706581664
1.1500000000000001,0.7947980571742638,0.10079819228889028,-0.09188117545294931,0.018925127018188572,-0.648183962251929
1.16,0.7957594302205084,0.09147515029986075,-0.09168712615816212,0.01989956352019556,-0.6467888583197633
1.17,0.7966276802118393,0.08217351790348931,-0.09148336485857875,0.02086827017361688,-0.6453241077586067
1.18,0.7974030261841295,0.07289428346517347,-0.09126994934508262,0.021831144065069807,-0.6437907750985856
1.19,0.7980856968744452,0.06363839886125934,-0.09104693792927032,0.022788183925918557,-0.6421908077511289
1.2,0.7986759306464957,0.05440683754719699,-0.09081438939138883,0.023739297257792412,-0.6405232407780969
1.21,0.7991739756100908,0.04520057529456196,-0.09057236357411876,0.02468436399049521,-0.6387880773386161
1.22,0.7995800894396567,0.0360205492590634,-0.09032092098071001,0.025623372030515554,-0.6369873758766025
1.23,0.7998945393761142,0.026867735589844836,-0.09006012298426135,0.026556159433383623,-0.6351193028162441
1.24,0.8001176021884454,0.01774306375589937,-0.08979003190609161,0.02748269842806479,-0.6331863245643793
1.25,0.8002495640409866,0.008647483363825877,-0.08951071078428534,0.028402873376535475,-0.6311875570991521
1.26,0.8002907204608846,-0.0004180826256591306,-0.08922222347727901,0.029316635784169574,-0.6291244649517953
1.27,0.8002413761609709,-0.009452720033474015,-0.08892463429008894,0.030223944795391693,-0.6269976177181774
1.28,0.8001018450990014,-0.01845549404815946,-0.08861800838703138,0.03112466933891238,-0.6248061108402367
1.29,0.7998724503905359,-0.027425507915423055,-0.08830241172128585,0.0320187826540857,-0.6225519854933297
1.3,0.7995535243003615,-0.03636182853744363,-0.08797791122798694,0.03290611503366695,-0.620233552528716
1.31,0.799145408132728,-0.04526358111442058,-0.08764457468451749,0.033786667672790725,-0.6178538719635318
1.32,0.7986484519843563,-0.05412988195028275,-0.08730247011783682,0.034660389441257045,-0.6154126343213061
1.33,0.7980630149312016,-0.06295981888673229,-0.08695166665333653,0.035527111697290996,-0.6129085502091117
1.34,0.7973894648722926,-0.07175253946256883,-0.08659223422834927,0.03638684063459184,-0.6103447539812058
1.35,0.7966281782761898,-0.08050718223121095,-0.08622424298487726,0.037239529109223804,-0.6077209359962656
1.36,0.7957795403434796,-0.08922286222741352,-0.08584776404494505,0.038085028184376965,-0.6050360590064721
1.37,0.7948439448965549,-0.09789874004991046,-0.08546286938332909,0.03892331618307289,-0.6022925523451202
1.3800000000000001,0.7938217942897262,-0.10653394871093974,-0.08506963177065202,0.03975425555066269,-0.5994891782340096
1.3900000000000001,0.7927134992485521,-0.1151276809458698,-0.08466812448391266,0.040577882530400934,-0.5966290788500775
1.4000000000000001,0.7915194788263457,-0.12367907846388755,-0.08425842140797524,0.041394039256816825,-0.593709843348048
1.41,0.7902401603312835,-0.13218734857971803,-0.08384059704134482,0.04220276082325944,-0.5907349110531189
1.42,0.7888759792945024,-0.1406516393809909,-0.08341472664018187,0.04300386054425799,-0.5877014625758655
1.43,0.7874273794118115,-0.1490711698408796,-0.08298088627708765,0.04379736175804624,-0.5846132047454229
1.44,0.7858948122828258,-0.15744514022348777,-0.08253915222947768,0.044583200146761,-0.5814693525216265
1.45,0.784278737564116,-0.16577273886697855,-0.08208960174422429,0.04536124606201097,-0.5782694622871407
1.46,0.7825796227731865,-0.1740532052432124,-0.0816323126452388,0.04613151370278306,-0.5750162537706315
1.47,0.780797943102272,-0.18228576493251317,-0.08116736297551111,0.046893945036759116,-0.5717091869624235
1.48,0.7789341816144089,-0.19046961818654043,-0.08069483191015142,0.047648371584174266,-0.5683471498996573
1.49,0.7769888289992052,-0.19860403943611682,-0.08021479920991985,0.048394844653910224,-0.5649340212308395
1.5,0.7749623833606526,-0.20668827137233975,-0.07972734478307178,0.049133283424935816,-0.5614683698143573
1.51,0.7728553503161069,-0.21472156862644445,-0.07923254928174056,0.04986361988638613,-0.5579509553461584
1.52,0.770668242851811,-0.2227032027863207,-0.07873049389159473,0.05058581530216924,-0.5543827901690561
1.53,0.7684015812956704,-0.230632433926717,-0.07822126051288215,0.05129976543717091,-0.5507634606052128
1.54,0.7660558931094583,-0.23850857519781649,-0.07770493134352681,0.0520055149714649,-0.5470957916337451
1.55,0.763631712867118,-0.2463308910115798,-0.07718158908170734,0.05270291913298758,-0.5433775052532803
1.56,0.761129582182078,-0.2540987090559581,-0.07665131696047918,0.0533920156811454,-0.5396119393305351
1.57,0.7585500495665808,-0.26181132187759076,-0.07611419855808738,0.054072697790167726,-0.5357974993008228
1.58,0.7558936705171722,-0.2694680400631959,-0.07557031836114789,0.054744890543249096,-0.5319352575355617
1.59,0.753161007291424,-0.2770682008181203,-0.07501976130423804,0.05540857923221706,-0.5280267175237008
1.6,0.7503526287314617,-0.2846111500253257,-0.07446261246640264,0.05606374966121433,-0.5240724839754008
1.61,0.747469110224652,-0.292096232751521,-0.0738989572240274,0.0567103565351434,-0.5200726861733886
1.62,0.7445110337630063,-0.2995227829956822,-0.07332888173284291,0.05734828921993515,-0.5160269407227844
1.6300000000000001,0.7414789876921598,-0.3068901960331174,-0.07275247238017735,0.057977612016092514,-0.5119384905428672
1.6400000000000001,0.7383735666309459,-0.3141978219466098,-0.07216981580509838,0.058598210253313944,-0.507805243405518
1.6500000000000001,0.7351953715638201,-0.3214450375235057,-0.07158099949403883,0.05921002906575122,-0.503628711125546
1.6600000000000001,0.731945009617654,-0.32863123749077516,-0.07098611132949609,0.05981304407719209,-0.49940996731890486
1.67,0.7286230938541676,-0.335755840151853,-0.07038523919183175,0.060407280092623215,-0.49515036824751735
1.68,0.7252302432692636,-0.34281824036450315,-0.06977847124902267,0.06099265476066682,-0.49084891429863947
1.69,0.721767082784281,-0.3498178581801557,-0.06916589622036778,0.0615691401277471,-0.4865070437364917
1.7,0.7182342431506427,-0.3567541075270276,-0.06854760335384483,0.06213665837097583,-0.4821246266946634
1.71,0.7146323607485329,-0.3636264487238923,-0.06792368205253747,0.06269525628306473,-0.47770416481654976
1.72,0.710962077525081,-0.3704343080608558,-0.06729422196546117,0.06324483786418024,-0.4732441310475871
1.73,0.7072240409273814,-0.3771771592530264,-0.0666593130618475,0.06378543504939263,-0.4687470795040704
1.74,0.7034189037933104,-0.38385445042686384,-0.0660190455659695,0.06431696487439743,-0.4642119070005793
1.75,0.6995473244323889,-0.3904656391215019,-0.06537351052489443,0.06483934568246687,-0.4596392648395863
1.76,0.6956099662957228,-0.3970102394810965,-0.06472279901168052,0.06535265393361894,-0.4550321688674752
1.77,0.6916074978240079,-0.4034877394442744,-0.06406700192086333,0.06585684888451439,-0.45038948650478755
1.78,0.6875405925121645,-0.4098976402252252,-0.06340621048395072,0.06635190385918102,-0.44571206295545845
1.79,0.6834099287780895,-0.41623945601310997,-0.06274051613414794,0.0668378051795705,-0.4410007287516956
1.8,0.6792161899190415,-0.42251269674384273,-0.062070010663179895,0.06731449479226058,-0.43625545200174454
1.81,0.674960064080005,-0.4287168829327228,-0.06139478641900616,0.06778191946198697,-0.4314769445403713
1.82,0.6706422440603348,-0.4348515631890106,-0.06071493596703496,0.06824008891943839,-0.4266667959506823
1.83,0.6662634270862362,-0.4409163035349354,-0.06003055163812755,0.06868904036233263,-0.42182606065360484
1.84,0.6618243147910301,-0.4469106565247908,-0.059341725767158786,0.06912873578923398,-0.4169542462791823
1.85,0.6573256132934352,-0.45283417252081104,-0.05864855125769153,0.06955909942052181,-0.41205142572303727
1.86,0.6527680330338902,-0.4586864368148015,-0.05795112134306987,0.06998014105652013,-0.40711953151558034
1.87,0.6481522885351542,-0.46446704765190755,-0.057249529096349304,0.0703918829676988,-0.4021593956620068
