t,x,x_dot,theta,theta_dot,u
0.0,0.0008319954996237143,0.1664267896201751,0.5220137717179715,-0.317228687533066,10.0
0.01,0.003329644700678091,0.3331864956883247,0.5172450714766488,-0.6371979214865311,9.999997789957135
0.02,0.007497956836394674,0.5006161153611663,0.5092514612991778,-0.9626761854363188,9.999998032502612
0.03,0.01334534615980747,0.6690601982379274,0.4979637950795743,-1.2964856155997369,9.999998283272443
0.04,0.020883722251985027,0.8388736076216433,0.4832843407702193,-1.6415245580765518,9.999998218848067
0.05,0.030128600779008363,1.010422715732878,0.46508593157114714,-2.000783495184777,9.999998536403941
0.06,0.04109921437677082,1.1840840376460624,0.443211008987698,-2.377349837238903,9.999998798652772
0.07,0.053818591676947816,1.36023893780337,0.41747069944878545,-2.7743950541349833,9.999999078041974
0.08,0.06831355521422347,1.5392622872595105,0.38764414840638944,-3.1951340521211913,9.999999425344715
0.09,0.0845919145035704,1.7169581768634272,0.3535486918729732,-3.6286144246743315,9.761978648113569
0.1,0.10219666044374989,1.8042876443087916,0.3164429778209271,-3.795964728605652,4.893237513244614
0.11,0.12038624172795226,1.8337658289460796,0.2785058023466175,-3.794067104148873,1.8211767022910603
0.12,0.1386928777347849,1.8276233123884298,0.24109460089839135,-3.6903108942427516,-0.04420848989689611
0.13,0.15683369549164974,1.8005813271487572,0.20500211054315565,-3.5301195575470787,-1.1286834881933139
0.14,0.17464617020643894,1.7619616151433781,0.17064756361338682,-3.3426492010556768,-1.730758754547663
0.15,0.19204254195563503,1.717378027703691,0.1382156810189558,-3.1455657322238184,-2.0496746533165386
0.16,0.20897921273433448,1.670039840192441,0.1077524498526184,-2.9489072805084917,-2.2110942982676867
0.17,0.22543731993697777,1.6216808257832593,0.07922722250046457,-2.757944214605441,-2.2900619627108343
0.18,0.24141106371883356,1.5731785408390189,0.05257064797699791,-2.575141348353898,-2.3289046990701774
0.19,0.25690105460747514,1.524937570715845,0.027696553775489505,-2.4013985151618473,-2.3502308003820023
0.2,0.2719107306575839,1.4771193888181102,0.004513822298249905,-2.236807361404627,-2.3651152671154616
0.21,0.2864445542765773,1.4297680534973984,-0.017067622531702832,-2.081070806371491,-2.3784924015537485
0.22,0.3005071678167826,1.382876113708278,-0.03713404236078559,-1.933725667724633,-2.3921851747395255
0.23,0.3141030612511421,1.3364210722482337,-0.05576684752709229,-1.7942670551996,-2.4063640155457637
0.24,0.32723649519022274,1.290379986404476,-0.07304243612471893,-1.6621991667083533,-2.4206119645091073
0.25,0.3399115335535075,1.24473680855814,-0.08903241616712926,-1.53706117018841,-2.4342595349728215
0.26,0.3521321117312072,1.1994821585077222,-0.10380395756788094,-1.4184273575737731,-2.4467397169881564
0.27,0.3639021166726089,1.1546159479817761,-0.11742019083906348,-1.305916387304389,-2.457425636951312
0.28,0.37522547041965343,1.1101454576827383,-0.12994062112647306,-1.1991851680833947,-2.4658432332820155
0.29,0.38610618900451216,1.066082342274801,-0.14142146250299706,-1.0979190655510258,-2.4717137003764686
0.3,0.3965484316432836,1.0224436902608587,-0.15191594075309223,-1.00183541674708,-2.474740147895921
0.31,0.406556547581614,0.9792505016146532,-0.16147458803735112,-0.910678424803359,-2.4747298471946504
0.32,0.41613509955835604,0.9365245388096537,-0.17014545951834553,-0.8242086763826415,-2.4716707572023227
0.33,0.425288879893517,0.8942900025857654,-0.17797432438205232,-0.7422085093560171,-2.4654831637722916
0.34,0.43402292951025956,0.8525724474763617,-0.18500486478455244,-0.6644782520273587,-2.4561548902447123
0.35000000000000003,0.44234253714000443,0.8113959056109509,-0.19127880776552375,-0.590826586830353,-2.4438291869439777
0.36,0.4502532357367006,0.7707852051053936,-0.19683604582571193,-0.5210779190143339,-2.428538989889791
0.37,0.45776080542953357,0.7307649624815297,-0.20171477644238,-0.4550688117528887,-2.4103730529332745
0.38,0.46487125920618827,0.6913571376308639,-0.20595158244518022,-0.3926397262808766,-2.389547478432152
0.39,0.47159082834648836,0.6525834288705799,-0.20958150874808795,-0.33364255149440286,-2.3661584315492528
0.4,0.47792595686212697,0.6144646811506441,-0.21263816540683608,-0.2779383508344725,-2.340332497580712
0.41000000000000003,0.48388328048103224,0.5770183873968913,-0.21515377706195846,-0.22538889300419412,-2.312322939050799
0.42,0.4894696066856695,0.5402613977323105,-0.21715923245976854,-0.17586513510972818,-2.282243908562058
0.43,0.49469190566654936,0.5042093947263111,-0.2186841659855014,-0.12924515065232106,-2.2502342903959525
0.44,0.49955728638340163,0.46887443979682053,-0.21975698710003536,-0.08540578040256261,-2.216555602098984
0.45,0.5040729752930909,0.43426796007169605,-0.2204049147283589,-0.044231971388269335,-2.1813144543898337
0.46,0.5082463070571701,0.40040015840745335,-0.22065404678508616,-0.0056144717956791365,-2.1446444559746176
0.47000000000000003,0.5120847005931101,0.36727767188595084,-0.22052937819510304,0.0305581683704029,-2.1067953533362105
0.48,0.5155956386579814,0.3349066199591645,-0.22005482650564073,0.06439007860011126,-2.067858200636298
0.49,0.5187866599507913,0.3032920605814867,-0.21925329428077853,0.09598022561078981,-2.027948383884249
0.5,0.5216653370106867,0.27243569284189306,-0.21814668144231084,0.1254302706726712,-1.9872949633771124
0.51,0.524239258046546,0.24233894098753353,-0.21675590652519613,0.1528349269387276,-1.9459664500723042
0.52,0.5265160179902187,0.21300171522065287,-0.21510095409140106,0.17828636882461696,-1.904091191316086
0.53,0.5285032078873715,0.18442331852714516,-0.21320091301747968,0.2018716476705133,-1.8617481668349956
0.54,0.530208396618588,0.1566000054003998,-0.2110739861722394,0.2236810019285754,-1.8191375343857314
0.55,0.5316391164743113,0.12952819453807093,-0.20873750904150268,0.2437977536027756,-1.776292868281996
0.56,0.532802861760378,0.10320386218654597,-0.2062080072993757,0.26230062125302483,-1.7332758502938503
0.5700000000000001,0.5337070729563481,0.07762025873629938,-0.2035012039646528,0.279271495392828,-1.6902615763657372
0.58,0.5343591249472331,0.052771007582641534,-0.20063203655983108,0.29478565789838734,-1.6472649441719496
0.59,0.5347663249187344,0.028648938593318445,-0.19761470262413067,0.30891589259790203,-1.6043577913234097
0.6,0.5349359083782934,0.005246879996083378,-0.19446269615226244,0.3217301888334503,-1.5615695140585164
0.61,0.5348750266369126,-0.01744484209351618,-0.19118881327518758,0.3333001947612083,-1.5190543211831757
0.62,0.5345907384430358,-0.039435071814824425,-0.1878051687221615,0.3436906020334495,-1.4767952495823744
0.63,0.5340900110561916,-0.06073326804887713,-0.18432324047917403,0.3529641237897048,-1.4348468486283754
0.64,0.5333797190995412,-0.08134850384473931,-0.18075390473142552,0.3611784585851788,-1.393211268470821
0.65,0.5324666350470412,-0.1012921408981237,-0.17710744104306694,0.3683952847221822,-1.352024572119907
0.66,0.5313574229421757,-0.12057450771789632,-0.17339354583109193,0.37466960107871045,-1.311252987082601
0.67,0.5300586419503245,-0.139206255338578,-0.16962137588966755,0.3800543782128235,-1.2709300932233834
0.68,0.5285767474491392,-0.15719749371956912,-0.1657995818629826,0.38459791641177377,-1.231044554745119
0.6900000000000001,0.5269180832756044,-0.17456042480550588,-0.1619363107740603,0.3883526820494273,-1.1917169987590386
0.7000000000000001,0.5250888773354014,-0.19130603597207205,-0.15803921774870414,0.39136462620956675,-1.1528997224066668
0.71,0.5230952469597061,-0.2074454576900641,-0.15411550802164387,0.3936778115928884,-1.114612703668918
0.72,0.5209432010187628,-0.22298925425902785,-0.15017196671081262,0.39533223115372185,-1.0768392183606892
0.73,0.5186386333732582,-0.23794986621008365,-0.1462149585620748,0.3963720003956123,-1.0396849319721355
0.74,0.5161873198378961,-0.25233846453140785,-0.14225043778547247,0.39683514130195935,-1.0030959101091272
0.75,0.5135949245288031,-0.2661662201933042,-0.13828398741531125,0.3967578952136504,-0.9670815822426294
0.76,0.5108669994636295,-0.27944438405104294,-0.13432083517509086,0.3961751097832258,-0.9316547231268751
0.77,0.5080089880288632,-0.29218343330210955,-0.13036588092092727,0.39511753477502043,-0.8967845049447494
0.78,0.5050262197569165,-0.30439566374572036,-0.12642369427284328,0.39362049357004814,-0.8625700396326822
0.79,0.5019239079588133,-0.3160920255598242,-0.12249852057816936,0.3917135403247956,-0.8289505078370258
0.8,0.498707156970127,-0.32728336529622987,-0.11859431759552934,0.38942465971585594,-0.7959271478957426
0.81,0.4953809624023041,-0.3379805828085247,-0.11471476813584829,0.3867808767923563,-0.7635086175525796
0.8200000000000001,0.49195021154951635,-0.34819444318000126,-0.1108632923335101,0.38380772090633664,-0.7316936680112693
0.8300000000000001,0.4884196880859544,-0.3579349065755802,-0.10704307329748869,0.38052708452358797,-0.7004469858996056
0.84,0.48479406716331136,-0.36721371891938354,-0.1032570502044676,0.3769658804400395,-0.6698630266295458
0.85,0.4810779137944113,-0.37604116327916937,-0.09950792150656233,0.37314535738895815,-0.6398726193013045
0.86,0.4772756903994481,-0.3844274762926643,-0.09579817776373072,0.3690858600800234,-0.6104774318694379
0.87,0.47339175731638283,-0.3923828389006032,-0.09213011052035959,0.3648068612704164,-0.5816783453855092
0.88,0.4694303775173731,-0.39991654425079326,-0.08850583453504379,0.3603242576619549,-0.553434208792305
0.89,0.4653957117476359,-0.40703974582716274,-0.08492727767484945,0.3556595452584224,-0.5258414559362836
0.9,0.46129181682766174,-0.41376207605021653,-0.08139618073626048,0.35082865501477717,-0.4988265720984252
0.91,0.4571226534575246,-0.4200931274893648,-0.0779141282560551,0.3458469191831435,-0.4723901099539171
0.92,0.45289208681799764,-0.4260424123075897,-0.07448255493990794,0.3407289825294437,-0.4465303510733755
0.93,0.44860388749609315,-0.4316193379294607,-0.07110275272090491,0.3354887650974147,-0.421244131574396
0.9400000000000001,0.4442617363323064,-0.4368324469061078,-0.06777589043700565,0.3301369744549,-0.39649000469930973
0.9500000000000001,0.43986921981814864,-0.4416920674067103,-0.0645030017197091,0.32468995476007356,-0.37235911732157856
0.96,0.4354298286969044,-0.4462070216467989,-0.061284983129804675,0.3191587855019601,-0.3487774770445546
0.97,0.4309469655542546,-0.4503861195974158,-0.058122621790315666,0.31355428270790325,-0.325745751223676
0.98,0.42642394539055134,-0.45423806899567193,-0.05501659935849907,0.30788673117171983,-0.3032599310202344
0.99,0.4218639965784082,-0.4577714882702277,-0.05196749697110098,0.3021659575317912,-0.28131649310087925
1.0,0.4172702657727401,-0.46099410300935756,-0.04897581305734961,0.29639868248697493,-0.2598715519720319
1.01,0.41264581334254136,-0.46391544549201863,-0.046041949355231475,0.29059753110803377,-0.23901620833630252
1.02,0.40799361181593086,-0.46654355219481536,-0.04316620667406694,0.2847700711982059,-0.21867608302943609
1.03,0.40331655352952833,-0.46888642542006637,-0.04034881101056181,0.27892370299666513,-0.19884982821555297
1.04,0.3986174511661758,-0.47095199408796573,-0.03758991576946899,0.2730655500200658,-0.17953401368231137
1.05,0.39389903867049153,-0.47274807737147606,-0.034889605032289106,0.2672023585353699,-0.1607232734843328
1.06,0.3891639760823666,-0.47428163737283546,-0.03224790968072752,0.26133802606772505,-0.14237475711300637
1.07,0.38441484485661526,-0.4755614295030457,-0.029664791668356085,0.2554824461100541,-0.12457810552456325
1.08,0.37965414632510197,-0.47659472339755604,-0.02714013855917113,0.24964060848090827,-0.10725878647508978
1.09,0.37488430934775635,-0.47738874414173416,-0.024673788466455675,0.24381741721787495,-0.09041426973298564
1.1,0.37010769079812433,-0.47795066425596644,-0.02226553097297567,0.23801767804115548,-0.07404154038052677
1.11,0.3653265800187224,-0.47828681765446446,-0.019915121143614375,0.2322434913495694,-0.05809820058040877
1.12,0.36054319418083847,-0.4784053050400753,-0.017622263122772087,0.2265029448317395,-0.04267208547520117
1.1300000000000001,0.3557596766111771,-0.4783127949984754,-0.015386603469715543,0.22079947209925438,-0.02769093947904233
1.1400000000000001,0.35097810424536363,-0.47801589739943545,-0.013207754745428318,0.21513644179220026,-0.013151118367539438
1.1500000000000001,0.3462004881729568,-0.47752117182334197,-0.011085295972881586,0.20951719543947858,0.0009506609268249021
1.16,0.3414287744113946,-0.4768350733431312,-0.009018773762964508,0.2039448764130654,0.014620452288749307
1.17,0.3366648485591426,-0.47596323081577663,-0.00700771627931482,0.1984200322012984,0.027900444975367193
1.18,0.33191053106788154,-0.47491304500105186,-0.005051615875947204,0.19294928003897638,0.04070295458930273
1.19,0.3271675756835939,-0.47369045656888614,-0.003149922192216089,0.18753454887462565,0.05310199264134115
1.2,0.32243767686220903,-0.47230138300807933,-0.001302065039184251,0.18217787696781942,0.0650997734325156
1.21,0.3177224701586585,-0.47075168718075366,0.000492546198679221,0.17688131297400916,0.07670012182964947
1.22,0.3130235367386809,-0.4690463841292973,0.0022345094756493784,0.17164427658943193,0.08794655298653664
1.23,0.308342398490524,-0.46719231449246074,0.003924448357056916,0.16647247231661996,0.09874892838033933
1.24,0.30368051628255915,-0.4651948418421545,0.00556301988064961,0.16136689273543162,0.10918231820706707
1.25,0.2990392973780257,-0.46305932372027514,0.007150891990631795,0.1563287274342725,0.11924827663691259
1.26,0.2944200995745197,-0.460790295726945,0.008688731924076085,0.15135664540321964,0.12898916962345097
1.27,0.2898242260033101,-0.4583941556587718,0.010177225732946452,0.1464557420752788,0.13831315671550923
1.28,0.28525292315940765,-0.45587583316954866,0.011617087092349977,0.14162644882167308,0.1472949825361522
1.29,0.2807073883987227,-0.4532402264714313,0.013009034632068229,0.13686932562825288,0.15593758114051126
1.3,0.27618877025023114,-0.4504922027927023,0.014353793237928248,0.13218506423815268,0.16424387602261548
1.31,0.2716981726472918,-0.4476358140085522,0.015652082305678272,0.12757187453715002,0.17225601940451105
1.32,0.2672366500011654,-0.4446769127517351,0.016904634506457638,0.12303420271760693,0.17988534105435136
1.33,0.2628052052893953,-0.4416199332946437,0.01811220454272376,0.11857201061025537,0.1872041939187863
1.34,0.25840479735564503,-0.4384692681517953,0.019275547265842786,0.11418536621562703,0.19421611212931478
1.35,0.2540363452250395,-0.43522848845331946,0.02039540574469923,0.10987184419945091,0.2009636121846771
1.36,0.24970072258119214,-0.43190309142733563,0.021472532092400992,0.10563567940075368,0.20735179869940729
1.37,0.2453987556994765,-0.42849706163069506,0.022507696799884482,0.10147631403057265,0.21345778804271465
1.3800000000000001,0.24113123089266464,-0.4250144070081458,0.02350166641960547,0.09739351791061517,0.21928189079112007
1.3900000000000001,0.23689889861829896,-0.42145829057365114,0.02445519236623661,0.09338449256395387,0.22486783126257895
1.4000000000000001,0.2327024678597101,-0.4178338441889575,0.025369032088914945,0.0894532437809545,0.23011858968598561
1.41,0.22854260395209353,-0.4141446657373932,0.026243958779441516,0.08559891558365905,0.23511236878802788
1.42,0.22441994022602002,-0.41039355813589595,0.027080725076237537,0.0818182517546333,0.23989040945836448
1.43,0.22033507166181723,-0.40658538852816617,0.02788008666267521,0.07811511768741784,0.24435092056224814
1.44,0.21628855236755062,-0.40272346432759654,0.028642813130792356,0.07448843085656381,0.24857339692359068
1.45,0.21228090754340775,-0.3988102595512279,0.029369650608374962,0.07093457919040977,0.2526009988570581
1.46,0.2083126268125026,-0.39485041559544193,0.030061346414962255,0.06745741315153046,0.2563267600581799
1.47,0.2043841614259752,-0.39084696555559045,0.03071866080918109,0.06405567115061138,0.25983259619945753
1.48,0.20049593655030365,-0.3868020931085851,0.03134232851374291,0.06072550568293247,0.2631624550441547
1.49,0.19664834432012365,-0.38272022093652786,0.03193308426141163,0.05747076621301562,0.26620576248372924
1.5,0.1928417408857101,-0.3786041233204475,0.032491675028169964,0.054290052916288876,0.26904642263763945
1.51,0.18907645915604315,-0.3744556740622228,0.03301882000066312,0.05117920566171683,0.2717309148794799
1.52,0.185352801454073,-0.37027911654990897,0.033515237397186974,0.048142190784862156,0.2741420996070683
1.53,0.1816710362858715,-0.36607697086011876,0.03398165757612999,0.04517747095089316,0.2763676028869264
1.54,0.17803141152329335,-0.36185084357182246,0.03441878148865437,0.04228069983175078,0.2784545258919631
1.55,0.17443414680180863,-0.35760477536211766,0.034827308298868515,0.03945586616009296,0.28028246317688477
1.56,0.17087943523919377,-0.3533400290701383,0.03520793193875349,0.03669793444617766,0.2819917505891346
1.57,0.1673674441338601,-0.34906050568584773,0.03556134104609831,0.03401088088830336,0.2834517557659446
1.58,0.16389831624567225,-0.34476721189136894,0.035888216945672326,0.031389266187737394,0.28480862347845903
1.59,0.1604721702083167,-0.3404639661889597,0.036189234500220706,0.028837236697700268,0.28592300533381554
1.6,0.1570891017487949,-0.33615153136848774,0.03646506025225262,0.02634898143881928,0.28694909737505697
1.61,0.1537491839600527,-0.3318336713965672,0.03671635369354818,0.02392890066145145,0.2877380463842054
1.62,0.15045246852187336,-0.32751090488899204,0.03694376535316384,0.021570800936836637,0.2884535091428596
1.6300000000000001,0.14719898590916874,-0.32318695414713017,0.03714793823002689,0.019279369051392513,0.2889364671285479
1.6400000000000001,0.1439887464809877,-0.3188621199903346,0.037329506267426794,0.017048106443965302,0.28935936003884843
1.6500000000000001,0.1408217407353076,-0.3145400737553673,0.037489095577372095,0.014881944784756025,0.2895547880688325
1.6600000000000001,0.1376979403689446,-0.3102209042828722,0.03762732295763704,0.012774088882707809,0.28970321615458405
1.67,0.1346173060100698,-0.30590673624088116,0.037744772146003476,0.010724719385365636,0.2897039647634574
1.68,0.13157976952185044,-0.301601198142483,0.03784205469290061,0.00873922029095523,0.2894829646032307
1.69,0.12858524719579176,-0.2973037757187621,0.03791976800450131,0.006809377697572765,0.28924868358998035
1.7,0.12563364826789855,-0.293016394069978,0.037978468923892714,0.004935289774945565,0.2888802052635818
1.71,0.12272486550366382,-0.28874042215008217,0.03801870692386289,0.0031153837331899317,0.2884064435229916
1.72,0.11985877150706652,-0.2844785233510778,0.038041038203968286,0.0013525782257962173,0.28776371906814313
1.73,0.11703522372305711,-0.28023106603405185,0.03804601084460987,-0.00035766984627837585,0.287067948074887
1.74,0.11425406742650752,-0.27600011574618655,0.038034156643534205,-0.0020140751627000927,0.2862352748707061
1.75,0.11151513387704902,-0.2717864099331908,0.03800599900563021,-0.003619602256058998,0.28533318791716666
1.76,0.10881824720846744,-0.26759063612383605,0.03796203170331146,-0.005177215354381857,0.28436518509760206
1.77,0.10616322124016629,-0.26341416955173486,0.03790273111793471,-0.006687429770000289,0.28329781171553015
1.78,0.10354985673843564,-0.25925824556170307,0.03782856692572393,-0.008151071730253786,0.2821389975540571
1.79,0.10097794290691517,-0.255123941272262,0.03773999867086167,-0.009569342191360122,0.280897573308439
1.8,0.09844726440772598,-0.25101108765755975,0.03763745387796089,-0.010947446563105315,0.27963676083560796
1.81,0.09595759626124317,-0.24692178200513829,0.037521346446454606,-0.012282905503866329,0.2782439952150896
1.82,0.0935086984093734,-0.2428569427580881,0.037392096121676856,-0.01357702873456769,0.27677907877733005
1.83,0.09110032255668501,-0.23881729883852443,0.03725010707686445,-0.014831622145378467,0.2752523042274973
1.84,0.08873221231852521,-0.23480373907200938,0.037095768744414365,-0.01604782914007312,0.27365645152950474
1.85,0.08640409924627171,-0.23081778742615494,0.03692947033607006,-0.017224550458530722,0.2719605086144045
1.86,0.08411569264658278,-0.22686236910836655,0.03675163604093799,-0.0183558872055669,0.2700951685494949
1.87,0.08186666721169025,-0.22294148230636288,0.03656276763247104,-0.019432215471162036,0.26800766034964546
