t,x,x_dot,theta,theta_dot,u
0.0,0.0008319954996237143,0.1664267896201751,0.5220137717179715,-0.317228687533066,10.0
0.01,0.003329644901909144,0.33318653596478714,0.5172450708945011,-0.637198038110899,10.0
0.02,0.007497957620734699,0.5006161917659466,0.5092514590246102,-0.9626764077048604,10.0
0.03,0.013345347867672532,0.6690603066218394,0.4979637901086576,-1.2964859331917689,10.0
0.04,0.02088372521186868,0.8388737497544603,0.48328433211265337,-1.641524978614838,10.0
0.05,0.030128605302730142,1.0104228864967322,0.46508591825830253,-2.000784006639245,10.0
0.06,0.04109922073035814,1.1840842329949963,0.4432109901535158,-2.3773504310929394,10.0
0.07,0.05381860008444968,1.3602391533785947,0.4174706743157882,-2.774395721138303,10.0
0.08,0.06831356584944902,1.5392625173573091,0.38764411630968076,-3.195134778927801,10.0
0.09,0.08445718065226582,1.6899262481423212,0.3539664848788716,-3.5445721240630084,8.345875203609467
0.1,0.101772734222197,1.7734673573856143,0.3177618923119268,-3.6996541896207162,4.71020898744464
0.11,0.11966297995709568,1.8047246800512458,0.28076242446125743,-3.7028113486468994,1.9276899879798295
0.12,0.13767066835815805,1.796872742469449,0.24429519099972755,-3.5927062146667326,-0.11887163966894132
0.13,0.15546126852965336,1.7612730184057102,0.20932257121553846,-3.403603380609006,-1.5516459719464182
0.14,0.17280418017724988,1.7073336518011943,0.17649019841483332,-3.164518760753568,-2.492067432962358
0.15,0.18955314399826312,1.6424982899746532,0.14618175828122276,-2.8987535343137667,-3.053329829759895
0.16,0.2056272619798256,1.5723835006330313,0.11857571517398811,-2.6239971761941114,-3.334446067996323
0.17,0.2209939263045557,1.501023839725248,0.0936986660011836,-2.352903575309734,-3.417241042442619
0.18,0.2356544482694798,1.4311657332068584,0.07147157504833226,-2.0939340365780357,-3.366101826466619
0.19,0.2496326269346854,1.364560014069159,0.05174719507829541,-1.8522697946692324,-3.2296135754510766
0.2,0.26296608554037887,1.3022216449581225,0.03433866195338488,-1.6306586308356126,-3.0431278374418618
0.21,0.2756999768358975,1.2446429258424303,0.01904027385078086,-1.4301273180895224,-2.8315350332483646
0.22,0.28788258507496073,1.1919591614643799,0.005641892301175386,-1.2505427132766016,-2.611791917793452
0.23,0.299562373306614,1.1440718626161555,-0.006061564496506236,-1.0910314081972996,-2.3950423151254654
0.24,0.3107860911611194,1.1007376047069275,-0.01626423954334122,-0.9502822329216629,-2.1882692048046737
0.25,0.32159763756539894,1.0616301864881381,-0.025146017662383103,-0.8267565425539953,-1.9955510210990912
0.26,0.3320374464704973,1.0263831287863436,-0.03287096577289236,-0.7188301935646636,-1.8189743319526315
0.27,0.3421422265379834,0.9946180230093347,-0.03958694533999574,-0.6248863181292397,-1.6592865990847345
0.28,0.3519449334051017,0.9659627448957921,-0.04542597582437663,-0.5433730065738539,-1.516363845765591
0.29,0.3614748895170691,0.9400627895694026,-0.05050505574401751,-0.47283733845799747,-1.3895285564661024
0.3,0.37075799269921844,0.9165877097143655,-0.05492724029977246,-0.4119427978760132,-1.2777783053368332
0.31,0.37981697326800606,0.8952344023277378,-0.05878284016714141,-0.3594761797980741,-1.1799340159445997
0.32,0.3886716730402921,0.8757282127962647,-0.062150653582348524,-0.31434739807827494,-1.0947444105148318
0.33,0.39733932834279373,0.8578226378007949,-0.0650991743937869,-0.27558490292221,-1.0209543306380513
0.34,0.4058348456898967,0.8412981601701435,-0.0676877413818837,-0.24232853407048813,-0.9573481820523742
0.35000000000000003,0.41417106314983265,0.8259605539144056,-0.06996760896440782,-0.21382095170326854,-0.9027774725854396
0.36,0.4223589934526798,0.8116389285826681,-0.07198292954452329,-0.189398534902535,-0.8561753928661346
0.37,0.4304080469071902,0.7981836469738348,-0.07377164433264002,-0.16848217514132452,-0.8165648905932903
0.38,0.43832623341698124,0.7854642271770568,-0.07536628332188683,-0.15056830870710539,-0.7830612045526504
0.39,0.4461203439461408,0.7733673300644566,-0.07679467835166655,-0.1352204961790209,-0.7548692452907564
0.4,0.4537961124374666,0.7617948618719798,-0.07808059508157218,-0.12206161908889523,-0.7312793515622613
0.41000000000000003,0.46135835931871794,0.7506621887318122,-0.07924428985848293,-0.11076665607805655,-0.7116630445420737
0.42,0.46881111797983543,0.7398965158498493,-0.08030299801799057,-0.10105618812484785,-0.6954659783840174
0.43,0.47615774581974507,0.7294354217938979,-0.08127136063363193,-0.09269057788394017,-0.6822012136876587
0.44,0.48340102124108236,0.7192255133769362,-0.08216179577484851,-0.08546468756846166,-0.6714440795779226
0.45,0.4905432279916032,0.7092212397403077,-0.08298482020439513,-0.0792032449109224,-0.6628249728679663
0.46,0.497586228506439,0.6993838781180532,-0.08374932811834764,-0.07375688221813871,-0.6560214190185074
0.47000000000000003,0.504531527339445,0.6896805656087437,-0.08446283149912699,-0.0689984168155408,-0.6507563373446463
0.48,0.5113803258670334,0.6800835216529029,-0.08513166683325893,-0.06481984082973791,-0.6467889660596846
0.49,0.5181335693241995,0.6705692917820961,-0.08576117241727126,-0.06112944668141355,-0.6439142103493216
0.5,0.5247919871831718,0.6611181722109514,-0.08635584020921332,-0.05784960867767553,-0.6419539257884019
0.51,0.531356127820121,0.6517136427029011,-0.08691944587950075,-0.05491463955862392,-0.640756802558899
0.52,0.5378263880818053,0.6423419135550825,-0.08745515953171772,-0.052269066411245346,-0.6401928959786889
0.53,0.544203038511012,0.6329915102586104,-0.08796563998634552,-0.04986606604834574,-0.6401519516110419
0.54,0.5504862449315229,0.6236529606465646,-0.08845311527118137,-0.04766626988160279,-0.6405384467542174
0.55,0.5566760867178697,0.6143184446199774,-0.08891945066835237,-0.04563646940040621,-0.6412736214697361
0.56,0.5627725722098106,0.6049815732915511,-0.08936620607305551,-0.04374877219930293,-0.64228911653161
0.5700000000000001,0.5687756520022001,0.5956371848662967,-0.0897946852823168,-0.04197983132680575,-0.6435262432694433
0.58,0.5746852300493498,0.5862811116044067,-0.09020597717583946,-0.04030999372877159,-0.6449375270307067
0.59,0.5805011730578009,0.5769100704970803,-0.09060099050009847,-0.03872287195282338,-0.6464805787801744
0.6,0.5862233184893014,0.5675214945969539,-0.090980483440127,-0.03720472958323134,-0.6481211377680305
0.61,0.5918514811585671,0.5581134206097828,-0.09134508802618199,-0.035744062380850185,-0.6498303040862083
0.62,0.5973854589480128,0.5486844246739618,-0.09169533119043911,-0.034331346888485575,-0.65158216714859
0.63,0.6028250375995423,0.5392335019706022,-0.09203165241114176,-0.03295860905652894,-0.6533566629886627
0.64,0.6081699946459546,0.5297600150152211,-0.09235441821054158,-0.03161922613048526,-0.6551361609995365
0.65,0.6134201027190919,0.520263620699521,-0.09266393434214845,-0.03030766244876046,-0.6569065570831301
0.66,0.6185751323944345,0.5107442505267941,-0.09296045623795575,-0.029019385503853766,-0.6586546275019649
0.67,0.623634854601161,0.5012020434594361,-0.09324419784664786,-0.027750627956108043,-0.6603704260289671
0.68,0.6285990425008058,0.4916373067782336,-0.09351533857052227,-0.02649824521580013,-0.6620458944141863
0.6900000000000001,0.6334674731036641,0.4820505027656674,-0.09377402921770796,-0.025259660843729485,-0.6636735795438291
0.7000000000000001,0.6382399286945778,0.47244222389429297,-0.09402039722720998,-0.024032775660489333,-0.6652472214400773
0.71,0.6429161979519098,0.46281315626887515,-0.0942545507983659,-0.022815839435962913,-0.6667623521387571
0.72,0.6474960769036378,0.45316408360373356,-0.09447658241620402,-0.021607458332434958,-0.6682142692804334
0.73,0.6519793697818523,0.44349586292407595,-0.09468657198782313,-0.020406509636884174,-0.6695994617044922
0.74,0.6563658895661657,0.4338093866397332,-0.0948845889047834,-0.01921201214901065,-0.6709162986278532
0.75,0.6606554585238564,0.42410561981787837,-0.09507069406015164,-0.01802324671830819,-0.6721612599492071
0.76,0.6648479087105155,0.41438555500997626,-0.09524494170659592,-0.016839603907064567,-0.6733330775797368
0.77,0.668943082343682,0.40465023201961364,-0.09540738087118845,-0.015660647633247305,-0.6744294796884063
0.78,0.6729408321187317,0.39490070658385334,-0.09555805656151252,-0.014486009773715119,-0.6754497571289537
0.79,0.6768410213752634,0.3851380517883113,-0.09569701046252843,-0.013315393673011397,-0.6763931225985287
0.8,0.680643524281875,0.37536336033008655,-0.09582428168375781,-0.012148580702052976,-0.6772586695104836
0.81,0.6843482260118259,0.36557774043186125,-0.09593990746796648,-0.010985415996340316,-0.6780456920713194
0.8200000000000001,0.6879550229258713,0.3557823213625021,-0.09604392391773692,-0.009825826296871393,-0.6787532045692206
0.8300000000000001,0.6914638226558818,0.3459782280711279,-0.09613636638923306,-0.008669735522687726,-0.6793814926594495
0.84,0.6948745441183297,0.33616659252498093,-0.09621726965099486,-0.007517102185702131,-0.6799302718043334
0.85,0.6981871176399685,0.32634856481245716,-0.09628666841340186,-0.0063679561380769936,-0.6803986997157336
0.86,0.7014014849886551,0.31652528306673194,-0.09634459754337989,-0.00522229884988874,-0.680787443891167
0.87,0.7045175993638755,0.30669789548189447,-0.09639109214614107,-0.004080176527311245,-0.6810960673913362
0.88,0.7075354254739569,0.2968675556358678,-0.09642618793565569,-0.002941664763223843,-0.6813243690133088
0.89,0.7104549394705552,0.2870353986196832,-0.09644992113371366,-0.0018067895685226452,-0.6814733469113703
0.9,0.7132761289494409,0.277202578169229,-0.09646232859094118,-0.0006756507484691448,-0.6815421368554233
0.91,0.7159989929633785,0.2673702319523979,-0.09646344795027384,0.00045169297876707353,-0.6815316184470426
0.92,0.7186235420079929,0.25753951087899835,-0.09645331772364306,0.0015751264648332763,-0.6814412019983864
0.93,0.7211497980225888,0.24771155278152546,-0.09643197742139306,0.0026945650982507377,-0.681271620811895
0.9400000000000001,0.7235777943379527,0.23788749813000146,-0.09639946750928322,0.0038099023334890354,-0.681022821534425
0.9500000000000001,0.7259075756347214,0.2280684764305698,-0.09635582940394427,0.004921054468217784,-0.6806954355165367
0.96,0.7281391979114009,0.2182556217571616,-0.09630110550373157,0.0060279087838624465,-0.6802893166244033
0.97,0.7302727285152631,0.20845006979700265,-0.09623533943172904,0.00713033295869493,-0.6798044693469993
0.98,0.7323082460245769,0.1986529310684172,-0.09615857578962198,0.008228263518659108,-0.6792422446981075
0.99,0.7342458402288674,0.18886533731126415,-0.09607086024036225,0.009321551602269938,-0.6786016675084827
1.0,0.736085612095521,0.17908839236496907,-0.09597223954922902,0.010410125520687917,-0.6778842303156853
1.01,0.7378276736955598,0.16932321312374798,-0.0958627614932315,0.011493854538381133,-0.677089372351765
1.02,0.7394721482003437,0.15957090276844843,-0.09574247500945669,0.012572637285947296,-0.6762178786098954
1.03,0.741019169824981,0.14983256687519841,-0.09561143017057813,0.013646347927782378,-0.675269728004932
1.04,0.7424688837309311,0.14010928914435428,-0.09546967802886422,0.014714916305165101,-0.6742461197823282
1.05,0.7438214459795996,0.13040216587122513,-0.09531727063285204,0.015778213245886564,-0.6731465252488853
1.06,0.745077023479964,0.1207122702812303,-0.09515426102767861,0.01683616852563431,-0.6719722077250481
1.07,0.7462357939666263,0.1110406942811176,-0.09498070335987935,0.01788863200366686,-0.6707223373651505
1.08,0.7472979460081792,0.10138851277059262,-0.0947966530866071,0.018935491596617025,-0.6693978779017922
1.09,0.7482636788590628,0.091756788025936,-0.09460216666986639,0.01997665834025806,-0.6679995754361157
1.1,0.7491332023420302,0.08214657143860626,-0.09439730137580106,0.021012060309025048,-0.6665280906856061
1.11,0.7499067369064892,0.07255893695587359,-0.09418211566058513,0.02204153133016481,-0.664982408285141
1.12,0.7505845134880024,0.06299490786709834,-0.09395666890035734,0.023065053513852685,-0.6633651891350745
1.1300000000000001,0.7511667734612916,0.053455548721303266,-0.09372102143472409,0.02408245198086997,-0.6616744834184649
1.1400000000000001,0.751653768632808,0.04394188132246437,-0.09347523474489915,0.025093673202298418,-0.6599125590175392
1.1500000000000001,0.7520457611224053,0.0344549465534322,-0.09321937126763018,0.026098579525989964,-0.6580785835534337
1.16,0.7523430233385766,0.024995761266093174,-0.09295349452297788,0.027097091858819155,-0.6561738900095229
1.17,0.7525458378181797,0.015565334286457403,-0.09267766879592665,0.02808913625038965,-0.654199010096491
1.18,0.7526544972455921,0.006164686299296026,-0.09239195941629022,0.029074577604342525,-0.6521534796431663
1.19,0.7526693043684739,-0.0032051907173712094,-0.09209643269892212,0.03005335393425195,-0.6500388719979675
1.2,0.752590571872416,-0.012543301150282868,-0.09179115575076419,0.03102536874765665,-0.6478551394911483
1.21,0.7524186224231273,-0.02184864458146182,-0.09147619683683812,0.03199048683178261,-0.6456021778099243
1.22,0.7521537885086601,-0.031120256954895564,-0.09115162508623001,0.03294867052141663,-0.6432819501310592
1.23,0.7517964123088658,-0.04035716396230296,-0.09081751029139674,0.03389982475601435,-0.6408940823748708
1.24,0.7513468456999399,-0.049558400637319214,-0.09047392315825244,0.0348438618347682,-0.6384391851723192
1.25,0.7508054501929917,-0.05872300495730521,-0.09012093534028512,0.03578067987093489,-0.6359175500273713
1.26,0.7501725968450622,-0.0678500297528705,-0.08975861938435263,0.03671020200922571,-0.6333300677686928
1.27,0.7494486661775487,-0.07693852931647235,-0.08938704870406293,0.03763233168830773,-0.6306769591569896
1.28,0.7486340480641437,-0.0859875788919259,-0.08900629745479574,0.03854701705903489,-0.6279594242572779
1.29,0.7477291417023031,-0.09499623847669211,-0.08861644068859739,0.03945413056759318,-0.6251768489181995
1.3,0.7467343555560221,-0.10396359475940933,-0.08821755441676454,0.040353607845323484,-0.6223307245969769
1.31,0.7456501071938137,-0.11288874014342795,-0.08780971532756292,0.0412453778152786,-0.6194214920699599
1.32,0.7444768232574042,-0.12177076757736703,-0.08739300094030135,0.04212934528196433,-0.6164493343234057
1.33,0.7432149393201724,-0.13060879777811568,-0.08696748939594623,0.0430054810629679,-0.6134158012270925
1.34,0.7418648998625376,-0.13940192861527684,-0.08653325963821674,0.04387365372731409,-0.6103199052810666
1.35,0.7404271582062377,-0.14814929395020676,-0.0860903914607629,0.044733824656466,-0.6071636117994785
1.36,0.7389021763587937,-0.15685002276092616,-0.08563896525879262,0.045585912110901745,-0.6039468373358252
1.37,0.7372904250239506,-0.16550324681861203,-0.08517906233398465,0.04642981646660347,-0.600669884979725
1.3800000000000001,0.7355923834878526,-0.17410811786714528,-0.0847107647895625,0.04726547697824066,-0.597333921045065
1.3900000000000001,0.733808539451445,-0.18266380119907913,-0.08423415524930379,0.04809285024111247,-0.5939397908747193
1.4000000000000001,0.7319393889560303,-0.191169463446758,-0.08374931688766889,0.04891186948117128,-0.5904877285659316
1.41,0.7299854363730861,-0.1996242719375152,-0.08325633367520387,0.04972244219434981,-0.5869779372215271
1.42,0.7279471942994902,-0.20802741425937496,-0.08275529031223142,0.05052451487463102,-0.5834116025269029
1.43,0.7258251834457367,-0.216378080096704,-0.0822462721415854,0.051318012476679054,-0.5797890006005764
1.44,0.7236199325565082,-0.2246754729231442,-0.08172936517087837,0.05210287703998068,-0.576110995113849
1.45,0.721331978295277,-0.23291880550349608,-0.08120465597734611,0.05287905255730548,-0.5723782253265384
1.46,0.7189618651850139,-0.2411072931686452,-0.08067223180093051,0.053646462444086516,-0.5685909944772716
1.47,0.7165101454965611,-0.24924017100988968,-0.08013218046551425,0.05440506645322706,-0.56475046902895
1.48,0.7139773791307478,-0.25731667793518015,-0.07958459028118567,0.05515480755369566,-0.5608570170402523
1.49,0.711364133583345,-0.26533605604375987,-0.07902955022330366,0.055895609671719665,-0.5569109763205047
1.5,0.7086709838198152,-0.2732975692947043,-0.07846714981383887,0.056627439518262115,-0.5529136216640476
1.51,0.7058985121541937,-0.2812004840112675,-0.07789747901812256,0.057350241676479036,-0.5488652513921259
1.52,0.7030473082256654,-0.28904406883589473,-0.07732062846765612,0.0580639382784099,-0.5447661626338967
1.53,0.7001179689117323,-0.2968276074582398,-0.07673668947423551,0.058768471082056795,-0.5406172917783261
1.54,0.6971110981258986,-0.30455040898635755,-0.07614575366226527,0.05946383578543478,-0.536420095860958
1.55,0.694027306750165,-0.31221177060998284,-0.07554791305009802,0.06014995787006672,-0.5321741610765462
1.56,0.6908672126318517,-0.319811002071014,-0.07494326034640032,0.06082677373972264,-0.5278803011775022
1.57,0.6876314404010616,-0.3273474370685194,-0.07433188865235071,0.061494268459821026,-0.5235399024188521
1.58,0.6843206213955222,-0.33482040037533606,-0.07371389152196994,0.06215236636136672,-0.5191527037322521
1.59,0.6809353935902982,-0.3422292397477648,-0.07308936303997969,0.06280103693415724,-0.5147200441360473
1.6,0.677476401440239,-0.3495733114704239,-0.07245839761108344,0.06344024666820165,-0.5102425388991838
1.61,0.6739442957956124,-0.3568519801726422,-0.07182108999347704,0.06406995834861841,-0.5057207946479325
1.62,0.6703397338367146,-0.3640646152163591,-0.07117753539647119,0.06469011893323666,-0.5011552377045154
1.6300000000000001,0.6666633790423859,-0.3712105875262856,-0.07052782969220966,0.06530064884715492,-0.49654613658785784
1.6400000000000001,0.6629159009976938,-0.3782893049303257,-0.06987206909449714,0.06590155930949217,-0.4918955314159392
1.6500000000000001,0.6590979752198121,-0.38530017317856197,-0.06921034989905772,0.06649282271093132,-0.487203509360552
1.6600000000000001,0.6552102831492382,-0.3922426018535653,-0.06854276877378511,0.06707439219879109,-0.48247045412659606
1.67,0.6512535120477626,-0.3991160171119728,-0.06786942273990204,0.06764624393413948,-0.4776973883807658
1.68,0.6472283549414746,-0.4059198399338441,-0.06719040930392589,0.06820830465967952,-0.47288424581289323
1.69,0.6431355105106987,-0.41265351848936405,-0.06650582641449929,0.06876055917576865,-0.4680325824022291
1.7,0.6389756828926019,-0.4193165132391339,-0.06581577212995869,0.06930300073581246,-0.4631432080268856
1.71,0.6347495816640679,-0.42590827577633983,-0.06512034488577097,0.06983556063106738,-0.4582158730924131
1.72,0.6304579217075298,-0.4324282933965686,-0.0644196433736257,0.07035825630858475,-0.45325256109237655
1.73,0.6261014231024774,-0.43887603939100556,-0.06371376650661299,0.07087102602351686,-0.4482527659833435
1.74,0.6216808110574926,-0.445251014648118,-0.06300281351975699,0.0713738671112203,-0.4432180659472942
1.75,0.6171968157698094,-0.4515527205476174,-0.062286883830279194,0.07186674578310566,-0.4381486818194391
1.76,0.612650172331351,-0.4577806767707004,-0.061566077052892174,0.07234965631575438,-0.43304572671651886
1.77,0.6080416206351614,-0.46393440341033937,-0.06084049301687289,0.07282256150347693,-0.4279094180464744
1.78,0.603371905349203,-0.47001342538682683,-0.0601102320078365,0.0732854072499138,-0.4227401949465275
1.79,0.5986417756927572,-0.47601730751604143,-0.0593753943538684,0.07373823915676449,-0.4175402530282737
1.8,0.5938519853291742,-0.48194559616778787,-0.05863608039880134,0.07418100847062015,-0.4123088661581278
1.81,0.5890032923675615,-0.48779785581849866,-0.0578923908379236,0.07461369362820774,-0.407047138959169
1.82,0.584096459201298,-0.4935736651365586,-0.057144426511559154,0.07503628717558226,-0.40175598032772575
1.83,0.5791322524034592,-0.49927260951320207,-0.05639228838834333,0.07544877089515795,-0.39643592528998806
1.84,0.5741114426449355,-0.5048942839929533,-0.055636077624257416,0.07585112552172972,-0.39108765579760085
1.85,0.5690348045921557,-0.5104382944223307,-0.05487589555420188,0.07624333452378354,-0.3857119115442038
1.86,0.5639031167501294,-0.5159042672387522,-0.05411184350191192,0.07662541666807787,-0.3803099223226307
1.87,0.5587171613757553,-0.5212918256265288,-0.05334402282356195,0.07699734669745614,-0.37488172404468045
